Typical Measured Spectrum of Semrock NF01-532U Optical Filter	
For wavelengths between 320 and 1120 nm, values near or below 3e-7 (Optical Density 6.5) are measurement noise limited.
For wavelengths < 320 nm and > 1120 nm, values near or below 3e-6 (Optical Density 5.5) are measurement noise limited. 
Data format:  Wavelength (nm) <tab> Transmission (0 to 1)
301.8	0.05431
302	0.05755
302.2	0.06035
302.4	0.06473
302.6	0.06826
302.8	0.07355
303	0.07689
303.2	0.08047
303.4	0.08347
303.6	0.08674
303.8	0.09055
304	0.09288
304.2	0.09734
304.4	0.10167
304.6	0.10779
304.8	0.11426
305	0.11915
305.2	0.12284
305.4	0.12734
305.6	0.13074
305.8	0.13528
306	0.14021
306.2	0.14486
306.4	0.15185
306.6	0.15417
306.8	0.15388
307	0.16001
307.2	0.16449
307.4	0.16656
307.6	0.17264
307.8	0.17829
308	0.17953
308.2	0.18824
308.4	0.19281
308.6	0.19033
308.8	0.19427
309	0.20197
309.2	0.203
309.4	0.20734
309.6	0.21392
309.8	0.21424
310	0.22129
310.2	0.23346
310.4	0.23333
310.6	0.23321
310.8	0.24092
311	0.24092
311.2	0.2397
311.4	0.24717
311.6	0.25003
311.8	0.25181
312	0.26205
312.2	0.26491
312.4	0.25657
312.6	0.2631
312.8	0.27228
313	0.27434
313.2	0.27942
313.4	0.2884
313.6	0.28949
313.8	0.29244
314	0.30506
314.2	0.29603
314.4	0.28573
314.6	0.29516
314.8	0.30124
315	0.29617
315.2	0.30553
315.4	0.31392
315.6	0.3063
315.8	0.31099
316	0.32466
316.2	0.31665
316.4	0.30661
316.6	0.32389
316.8	0.33278
317	0.31899
317.2	0.3245
317.4	0.34317
317.6	0.33688
317.8	0.32625
318	0.34403
318.2	0.34334
318.4	0.32224
318.6	0.33012
318.8	0.35406
319	0.34469
319.2	0.33839
319.4	0.35893
319.6	0.36426
319.8	0.3478
320	0.35295
320.2	0.37362
320.4	0.36756
320.6	0.35641
320.8	0.36762
321	0.36702
321.2	0.35612
321.4	0.37078
321.6	0.38801
321.8	0.37051
322	0.36005
322.2	0.38524
322.4	0.39054
322.6	0.36796
322.8	0.37377
323	0.39684
323.2	0.37453
323.4	0.35269
323.6	0.38433
323.8	0.40726
324	0.36592
324.2	0.35015
324.4	0.3933
324.6	0.39968
324.8	0.35555
325	0.36086
325.2	0.40422
325.4	0.37976
325.6	0.33201
325.8	0.36168
326	0.41312
326.2	0.37624
326.4	0.34043
326.6	0.3905
326.8	0.42433
327	0.35717
327.2	0.32248
327.4	0.3867
327.6	0.42921
327.8	0.35604
328	0.33046
328.2	0.40629
328.4	0.43544
328.6	0.36527
328.8	0.35728
329	0.43346
329.2	0.42902
329.4	0.34617
329.6	0.3505
329.8	0.43978
330	0.4282
330.2	0.34565
330.4	0.35545
330.6	0.44948
330.8	0.45193
331	0.38176
331.2	0.40262
331.4	0.47638
331.6	0.43606
331.8	0.37174
332	0.41172
332.2	0.48127
332.4	0.4219
332.6	0.35329
332.8	0.40158
333	0.48913
333.2	0.44144
333.4	0.37729
333.6	0.42331
333.8	0.49656
334	0.44185
334.2	0.38375
334.4	0.4434
334.6	0.50942
334.8	0.44318
335	0.38765
335.2	0.45024
335.4	0.51596
335.6	0.44728
335.8	0.39161
336	0.45609
336.2	0.52338
336.4	0.45903
336.6	0.4105
336.8	0.46305
337	0.53199
337.2	0.48602
337.4	0.41308
337.6	0.45545
337.8	0.54251
338	0.50333
338.2	0.43807
338.4	0.48595
338.6	0.55413
338.8	0.48173
339	0.41338
339.2	0.47121
339.4	0.55165
339.6	0.48523
339.8	0.41485
340	0.46823
340.2	0.5664
340.4	0.52508
340.6	0.47099
340.8	0.52806
341	0.57785
341.2	0.50747
341.4	0.47054
341.6	0.54286
341.8	0.57206
342	0.49036
342.2	0.48395
342.4	0.5678
342.6	0.51172
342.8	0.38324
343	0.38065
343.2	0.49241
343.4	0.49391
343.6	0.39973
343.8	0.42526
344	0.52875
344.2	0.44305
344.4	0.33826
344.6	0.40093
344.8	0.51319
345	0.4038
345.2	0.31191
345.4	0.41353
345.6	0.46211
345.8	0.27967
346	0.21115
346.2	0.34419
346.4	0.42532
346.6	0.25289
346.8	0.20818
347	0.2508
347.2	0.43093
347.4	0.28915
347.6	0.15508
347.8	0.22527
348	0.39178
348.2	0.22802
348.4	0.13121
348.6	0.23269
348.8	0.35331
349	0.20637
349.2	0.20023
349.4	0.34942
349.6	0.22206
349.8	0.12639
350	0.23317
350.2	0.27736
350.4	0.13977
350.6	0.16562
350.8	0.25645
351	0.15374
351.2	0.16235
351.4	0.27303
351.6	0.17313
351.8	0.19288
352	0.25641
352.2	0.14369
352.4	0.15113
352.6	0.14102
352.8	0.15394
353	0.19002
353.2	0.07333
353.4	0.04537
353.6	0.00795
353.8	0.004
354	0.00241
354.2	0.00197
354.4	0.00183
354.6	0.00159
354.8	0.00147
355	0.00136
355.2	0.00114
355.4	0.00109
355.6	0.00103
355.8	0.0008645
356	0.00084552
356.2	0.00086973
356.4	0.00082753
356.6	0.00078936
356.8	0.00073276
357	0.00070577
357.2	0.00070725
357.4	0.00064194
357.6	0.00069119
357.8	0.00062166
358	0.00062636
358.2	0.00058109
358.4	0.00059327
358.6	0.00055379
358.8	0.00057308
359	0.0005744
359.2	0.00056204
359.4	0.000542
359.6	0.00050352
359.8	0.00046742
360	0.00051589
360.2	0.00049864
360.4	0.00051466
360.6	0.00050063
360.8	0.00047648
361	0.00050707
361.2	0.000488
361.4	0.00043066
361.6	0.00037971
361.8	0.00040502
362	0.00041157
362.2	0.00040109
362.4	0.00037848
362.6	0.00035477
362.8	0.00037253
363	0.00034353
363.2	0.00035052
363.4	0.00033257
363.6	0.00040464
363.8	0.00036453
364	0.000402
364.2	0.00042564
364.4	0.00042503
364.6	0.000464
364.8	0.00045041
365	0.00045033
365.2	0.00042694
365.4	0.00049276
365.6	0.00044823
365.8	0.0003655
366	0.00043472
366.2	0.00038609
366.4	0.00042934
366.6	0.00040793
366.8	0.00135
367	0.00227
367.2	0.00232
367.4	0.00232
367.6	0.00239
367.8	0.00241
368	0.00247
368.2	0.00242
368.4	0.00243
368.6	0.00252
368.8	0.00245
369	0.00249
369.2	0.00249
369.4	0.00253
369.6	0.00249
369.8	0.00251
370	0.00254
370.2	0.00254
370.4	0.00258
370.6	0.00265
370.8	0.00265
371	0.00269
371.2	0.00266
371.4	0.00278
371.6	0.00268
371.8	0.0027
372	0.00266
372.2	0.00278
372.4	0.00268
372.6	0.00281
372.8	0.00271
373	0.00287
373.2	0.00282
373.4	0.00285
373.6	0.00287
373.8	0.00291
374	0.00289
374.2	0.00294
374.4	0.00295
374.6	0.00297
374.8	0.00293
375	0.00297
375.2	0.003
375.4	0.00301
375.6	0.003
375.8	0.00293
376	0.00299
376.2	0.00297
376.4	0.00302
376.6	0.00296
376.8	0.00307
377	0.00305
377.2	0.00305
377.4	0.00311
377.6	0.003
377.8	0.00308
378	0.00307
378.2	0.00304
378.4	0.00308
378.6	0.00312
378.8	0.00302
379	0.00308
379.2	0.00311
379.4	0.00312
379.6	0.00304
379.8	0.00313
380	0.00316
380.2	0.00315
380.4	0.00312
380.6	0.00315
380.8	0.00319
381	0.00317
381.2	0.00325
381.4	0.00324
381.6	0.00335
381.8	0.00341
382	0.00494
382.2	0.00657
382.4	0.0212
382.6	0.04115
382.8	0.06162
383	0.10506
383.2	0.03321
383.4	0.05272
383.6	0.2709
383.8	0.24176
384	0.20701
384.2	0.33396
384.4	0.29792
384.6	0.25656
384.8	0.33597
385	0.42006
385.2	0.36237
385.4	0.28368
385.6	0.29264
385.8	0.40043
386	0.46755
386.2	0.39131
386.4	0.3645
386.6	0.46768
386.8	0.45552
387	0.54124
387.2	0.42701
387.4	0.34725
387.6	0.4188
387.8	0.54967
388	0.45878
388.2	0.30622
388.4	0.27835
388.6	0.39654
388.8	0.62413
389	0.57977
389.2	0.39351
389.4	0.36237
389.6	0.50716
389.8	0.69148
390	0.58661
390.2	0.3936
390.4	0.3564
390.6	0.47882
390.8	0.69598
391	0.64048
391.2	0.41382
391.4	0.35595
391.6	0.447
391.8	0.68377
392	0.77712
392.2	0.59092
392.4	0.45204
392.6	0.46347
392.8	0.62101
393	0.82283
393.2	0.74897
393.4	0.53588
393.6	0.44316
393.8	0.48198
394	0.63753
394.2	0.84113
394.4	0.83527
394.6	0.67406
394.8	0.58539
395	0.61634
395.2	0.7496
395.4	0.89898
395.6	0.89236
395.8	0.80947
396	0.77117
396.2	0.81602
396.4	0.89515
396.6	0.9283
396.8	0.88872
397	0.83615
397.2	0.82697
397.4	0.86733
397.6	0.92342
397.8	0.9461
398	0.92864
398.2	0.90507
398.4	0.90055
398.6	0.91892
398.8	0.9371
399	0.94242
399.2	0.9349
399.4	0.93057
399.6	0.92916
399.8	0.93079
400	0.92616
400.2	0.9161
400.4	0.91053
400.6	0.9181
400.8	0.9334
401	0.94547
401.2	0.94405
401.4	0.93682
401.6	0.93496
401.8	0.9432
402	0.95435
402.2	0.95913
402.4	0.9527
402.6	0.93729
402.8	0.93084
403	0.94082
403.2	0.95585
403.4	0.96098
403.6	0.94813
403.8	0.92808
404	0.91666
404.2	0.92212
404.4	0.9425
404.6	0.95939
404.8	0.96031
405	0.94674
405.2	0.93056
405.4	0.92828
405.6	0.93993
405.8	0.95743
406	0.96526
406.2	0.95509
406.4	0.93809
406.6	0.92805
406.8	0.93309
407	0.95111
407.2	0.96423
407.4	0.96286
407.6	0.94897
407.8	0.93604
408	0.9347
408.2	0.94692
408.4	0.9637
408.6	0.96729
408.8	0.95823
409	0.94341
409.2	0.93474
409.4	0.94113
409.6	0.95509
409.8	0.96815
410	0.9642
410.2	0.94804
410.4	0.93289
410.6	0.92852
410.8	0.93846
411	0.95424
411.2	0.96289
411.4	0.95631
411.6	0.94066
411.8	0.92574
412	0.92512
412.2	0.93792
412.4	0.95717
412.6	0.96764
412.8	0.96279
413	0.95084
413.2	0.93763
413.4	0.93675
413.6	0.94836
413.8	0.96177
414	0.96542
414.2	0.95274
414.4	0.935
414.6	0.92226
414.8	0.92516
415	0.93908
415.2	0.95439
415.4	0.95555
415.6	0.94012
415.8	0.91845
416	0.90326
416.2	0.90378
416.4	0.92125
416.6	0.94615
416.8	0.96365
417	0.96499
417.2	0.95071
417.4	0.93521
417.6	0.93074
417.8	0.93844
418	0.95293
418.2	0.96391
418.4	0.96083
418.6	0.94593
418.8	0.92815
419	0.91949
419.2	0.92471
419.4	0.94119
419.6	0.95397
419.8	0.95617
420	0.93993
420.2	0.91966
420.4	0.90541
420.6	0.90468
420.8	0.92007
421	0.94131
421.2	0.95566
421.4	0.95664
421.6	0.94473
421.8	0.93035
422	0.92303
422.2	0.92679
422.4	0.93952
422.6	0.95355
422.8	0.9552
423	0.94666
423.2	0.93303
423.4	0.921
423.6	0.9199
423.8	0.92826
424	0.94135
424.2	0.95144
424.4	0.95351
424.6	0.94662
424.8	0.93338
425	0.92334
425.2	0.91941
425.4	0.92307
425.6	0.93001
425.8	0.9348
426	0.93311
426.2	0.9308
426.4	0.93005
426.6	0.93249
426.8	0.9386
427	0.94626
427.2	0.94982
427.4	0.94755
427.6	0.9422
427.8	0.93746
428	0.93828
428.2	0.94466
428.4	0.95464
428.6	0.96111
428.8	0.9605
429	0.95338
429.2	0.94517
429.4	0.93962
429.6	0.94327
429.8	0.95199
430	0.96275
430.2	0.97002
430.4	0.96756
430.6	0.9581
430.8	0.94742
431	0.94154
431.2	0.94414
431.4	0.95467
431.6	0.96637
431.8	0.97228
432	0.96931
432.2	0.9564
432.4	0.94304
432.6	0.93396
432.8	0.93761
433	0.95057
433.2	0.96482
433.4	0.97288
433.6	0.97187
433.8	0.96024
434	0.94925
434.2	0.94329
434.4	0.94531
434.6	0.95594
434.8	0.96899
435	0.97764
435.2	0.97583
435.4	0.96565
435.6	0.9535
435.8	0.94498
436	0.94703
436.2	0.95701
436.4	0.97071
436.6	0.98017
436.8	0.97886
437	0.96481
437.2	0.94899
437.4	0.93582
437.6	0.93477
437.8	0.94386
438	0.9606
438.2	0.97561
438.4	0.98191
438.6	0.97621
438.8	0.96298
439	0.95119
439.2	0.94801
439.4	0.95339
439.6	0.96749
439.8	0.97747
440	0.98304
440.2	0.97754
440.4	0.96542
440.6	0.95274
440.8	0.94733
441	0.94965
441.2	0.96367
441.4	0.97696
441.6	0.98432
441.8	0.97877
442	0.96499
442.2	0.94735
442.4	0.93602
442.6	0.93511
442.8	0.94637
443	0.96364
443.2	0.97841
443.4	0.98375
443.6	0.97582
443.8	0.95953
444	0.94068
444.2	0.93268
444.4	0.93856
444.6	0.95375
444.8	0.97216
445	0.98215
445.2	0.98115
445.4	0.96839
445.6	0.95145
445.8	0.93589
446	0.93366
446.2	0.94166
446.4	0.95874
446.6	0.97569
446.8	0.9844
447	0.97993
447.2	0.96352
447.4	0.94499
447.6	0.93176
447.8	0.93087
448	0.94253
448.2	0.96103
448.4	0.97906
448.6	0.98474
448.8	0.97672
449	0.95795
449.2	0.93892
449.4	0.92729
449.6	0.928
449.8	0.94528
450	0.96513
450.2	0.9815
450.4	0.98496
450.6	0.97435
450.8	0.95388
451	0.93438
451.2	0.92639
451.4	0.92814
451.6	0.942
451.8	0.96344
452	0.98019
452.2	0.98445
452.4	0.97521
452.6	0.95582
452.8	0.93494
453	0.92207
453.2	0.92245
453.4	0.93494
453.6	0.95477
453.8	0.97328
454	0.98338
454.2	0.97988
454.4	0.96449
454.6	0.94565
454.8	0.93171
455	0.92959
455.2	0.93834
455.4	0.95503
455.6	0.97713
455.8	0.98573
456	0.98288
456.2	0.96762
456.4	0.95119
456.6	0.93754
456.8	0.93393
457	0.94231
457.2	0.95676
457.4	0.97418
457.6	0.98399
457.8	0.98305
458	0.97231
458.2	0.95626
458.4	0.94227
458.6	0.93534
458.8	0.93975
459	0.95097
459.2	0.96766
459.4	0.97975
459.6	0.98283
459.8	0.97563
460	0.96124
460.2	0.94953
460.4	0.9427
460.6	0.9445
460.8	0.95505
461	0.96979
461.2	0.98337
461.4	0.9848
461.6	0.97655
461.8	0.96086
462	0.94422
462.2	0.9335
462.4	0.93198
462.6	0.94034
462.8	0.95464
463	0.97071
463.2	0.98
463.4	0.98005
463.6	0.97002
463.8	0.95559
464	0.9417
464.2	0.93481
464.4	0.93765
464.6	0.94908
464.8	0.96459
465	0.97605
465.2	0.98255
465.4	0.9789
465.6	0.96926
465.8	0.9574
466	0.94793
466.2	0.94622
466.4	0.95183
466.6	0.96397
466.8	0.97558
467	0.9836
467.2	0.98154
467.4	0.97079
467.6	0.95629
467.8	0.94391
468	0.93873
468.2	0.9415
468.4	0.95248
468.6	0.96665
468.8	0.97917
469	0.9846
469.2	0.98082
469.4	0.96913
469.6	0.95507
469.8	0.94356
470	0.93826
470.2	0.94225
470.4	0.95327
470.6	0.96633
470.8	0.97877
471	0.98367
471.2	0.9806
471.4	0.96999
471.6	0.95772
471.8	0.94952
472	0.94718
472.2	0.95304
472.4	0.96304
472.6	0.97563
472.8	0.98239
473	0.98183
473.2	0.97302
473.4	0.95833
473.6	0.94374
473.8	0.93399
474	0.93304
474.2	0.94008
474.4	0.95359
474.6	0.96903
474.8	0.98004
475	0.98304
475.2	0.97744
475.4	0.96442
475.6	0.949
475.8	0.93843
476	0.93502
476.2	0.94071
476.4	0.95127
476.6	0.96681
476.8	0.97924
477	0.98408
477.2	0.98089
477.4	0.97098
477.6	0.95896
477.8	0.94909
478	0.94419
478.2	0.94715
478.4	0.96034
478.6	0.97282
478.8	0.98327
479	0.9858
479.2	0.97991
479.4	0.96861
479.6	0.95412
479.8	0.94212
480	0.93588
480.2	0.93861
480.4	0.94806
480.6	0.96214
480.8	0.97479
481	0.98354
481.2	0.98293
481.4	0.97487
481.6	0.96248
481.8	0.94947
482	0.94132
482.2	0.93929
482.4	0.94465
482.6	0.95757
482.8	0.97074
483	0.98073
483.2	0.98288
483.4	0.97691
483.6	0.96466
483.8	0.95056
484	0.93826
484.2	0.93299
484.4	0.93591
484.6	0.94505
484.8	0.95979
485	0.9726
485.2	0.98062
485.4	0.98075
485.6	0.9715
485.8	0.95744
486	0.94371
486.2	0.93441
486.4	0.93236
486.6	0.93608
486.8	0.94688
487	0.96023
487.2	0.97119
487.4	0.97737
487.6	0.97595
487.8	0.96865
488	0.95745
488.2	0.94671
488.4	0.94012
488.6	0.94056
488.8	0.94648
489	0.95632
489.2	0.96772
489.4	0.97587
489.6	0.97797
489.8	0.97269
490	0.96258
490.2	0.94966
490.4	0.93918
490.6	0.93526
490.8	0.93627
491	0.94285
491.2	0.9541
491.4	0.96514
491.6	0.97354
491.8	0.97618
492	0.97244
492.2	0.96445
492.4	0.95462
492.6	0.94684
492.8	0.94236
493	0.94412
493.2	0.95
493.4	0.95812
493.6	0.96716
493.8	0.97314
494	0.9748
494.2	0.97142
494.4	0.96496
494.6	0.95783
494.8	0.95278
495	0.95013
495.2	0.95149
495.4	0.95862
495.6	0.96551
495.8	0.97105
496	0.97456
496.2	0.97186
496.4	0.96659
496.6	0.95995
496.8	0.95191
497	0.94746
497.2	0.9468
497.4	0.9511
497.6	0.95809
497.8	0.96558
498	0.97109
498.2	0.97435
498.4	0.9731
498.6	0.96813
498.8	0.96137
499	0.95457
499.2	0.95167
499.4	0.95079
499.6	0.95395
499.8	0.95916
500	0.96567
500.2	0.97272
500.4	0.97578
500.6	0.97493
500.8	0.9717
501	0.965
501.2	0.95896
501.4	0.95621
501.6	0.95536
501.8	0.95837
502	0.96331
502.2	0.96773
502.4	0.97183
502.6	0.97258
502.8	0.96989
503	0.96526
503.2	0.95875
503.4	0.95357
503.6	0.95101
503.8	0.95207
504	0.95659
504.2	0.96269
504.4	0.9695
504.6	0.9736
504.8	0.97563
505	0.97362
505.2	0.9679
505.4	0.9634
505.6	0.9579
505.8	0.95511
506	0.9549
506.2	0.95862
506.4	0.9637
506.6	0.96999
506.8	0.97467
507	0.97589
507.2	0.97318
507.4	0.96815
507.6	0.96206
507.8	0.95563
508	0.9523
508.2	0.95253
508.4	0.95603
508.6	0.96227
508.8	0.96826
509	0.97396
509.2	0.97626
509.4	0.97522
509.6	0.97142
509.8	0.96541
510	0.96029
510.2	0.95813
510.4	0.95834
510.6	0.96107
510.8	0.96664
511	0.97134
511.2	0.9751
511.4	0.97555
511.6	0.97248
511.8	0.96667
512	0.95964
512.2	0.95373
512.4	0.95083
512.6	0.95221
512.8	0.95796
513	0.9666
513.2	0.9756
513.4	0.98309
513.6	0.98512
513.8	0.98415
514	0.97788
514.2	0.97046
514.4	0.96302
514.6	0.95829
514.8	0.9573
515	0.96001
515.2	0.96443
515.4	0.96923
515.6	0.97123
515.8	0.97061
516	0.96537
516.2	0.95867
516.4	0.9526
516.6	0.94967
516.8	0.95194
517	0.95874
517.2	0.96952
517.4	0.97933
517.6	0.98588
517.8	0.98551
518	0.97921
518.2	0.9674
518.4	0.9528
518.6	0.94216
518.8	0.93787
519	0.94164
519.2	0.95263
519.4	0.96966
519.6	0.98369
519.8	0.98783
520	0.98169
520.2	0.96742
520.4	0.95187
520.6	0.94094
520.8	0.93902
521	0.94471
521.2	0.95449
521.4	0.96086
521.6	0.95547
521.8	0.93502
522	0.90421
522.2	0.87141
522.4	0.8358
522.6	0.78863
522.8	0.70916
523	0.58513
523.2	0.4346
523.4	0.29621
523.6	0.18772
523.8	0.108
524	0.06041
524.2	0.03169
524.4	0.01595
524.6	0.008
524.8	0.00411
525	0.0022
525.2	0.00101
525.4	0.00054858
525.6	0.00030875
525.8	0.00018321
526	0.00011339
526.2	7.2872E-05
526.4	4.6577E-05
526.6	2.9903E-05
526.8	2.0474E-05
527	1.4019E-05
527.2	1.0137E-05
527.4	7.3831E-06
527.6	5.4649E-06
527.8	4.1557E-06
528	3.2251E-06
528.2	2.6014E-06
528.4	2.0983E-06
528.6	1.6965E-06
528.8	1.3724E-06
529	1.1541E-06
529.2	1.0562E-06
529.4	9.7767E-07
529.6	9.3086E-07
529.8	8.8628E-07
530	8.2119E-07
530.2	7.549E-07
530.4	6.8357E-07
530.6	5.9364E-07
530.8	5.2768E-07
531	5.0492E-07
531.2	4.8314E-07
531.4	4.8439E-07
531.6	4.9431E-07
531.8	4.9871E-07
532	4.8197E-07
532.2	4.7467E-07
532.4	5.1094E-07
532.6	5.4999E-07
532.8	5.8071E-07
533	6.0707E-07
533.2	6.3353E-07
533.4	6.5442E-07
533.6	6.8341E-07
533.8	7.5577E-07
534	8.3579E-07
534.2	9.3322E-07
534.4	1.0475E-06
534.6	1.1719E-06
534.8	1.2823E-06
535	1.4179E-06
535.2	1.7236E-06
535.4	2.0953E-06
535.6	2.606E-06
535.8	3.2939E-06
536	4.1711E-06
536.2	5.412E-06
536.4	7.0364E-06
536.6	9.6835E-06
536.8	1.3326E-05
537	1.9007E-05
537.2	2.8017E-05
537.4	4.1321E-05
537.6	6.7851E-05
537.8	0.00010878
538	0.00017218
538.2	0.00028627
538.4	0.00050103
538.6	0.00090061
538.8	0.0017
539	0.00332
539.2	0.00602
539.4	0.0119
539.6	0.02318
539.8	0.04255
540	0.07285
540.2	0.11725
540.4	0.18475
540.6	0.28625
540.8	0.44657
541	0.64928
541.2	0.81426
541.4	0.88168
541.6	0.87221
541.8	0.8506
542	0.85174
542.2	0.8771
542.4	0.91851
542.6	0.9561
542.8	0.97803
543	0.97518
543.2	0.95452
543.4	0.9289
543.6	0.91086
543.8	0.90391
544	0.91084
544.2	0.92706
544.4	0.94681
544.6	0.96364
544.8	0.97238
545	0.96894
545.2	0.95785
545.4	0.94319
545.6	0.93057
545.8	0.92354
546	0.92451
546.2	0.93182
546.4	0.94413
546.6	0.95914
546.8	0.97325
547	0.98282
547.2	0.98526
547.4	0.98231
547.6	0.97548
547.8	0.9678
548	0.96177
548.2	0.95902
548.4	0.95894
548.6	0.96371
548.8	0.96887
549	0.97384
549.2	0.97659
549.4	0.97505
549.6	0.97012
549.8	0.96168
550	0.95271
550.2	0.94533
550.4	0.9405
550.6	0.93992
550.8	0.94358
551	0.95059
551.2	0.95997
551.4	0.96971
551.6	0.97744
551.8	0.98184
552	0.98304
552.2	0.97968
552.4	0.97334
552.6	0.96691
552.8	0.96038
553	0.95682
553.2	0.95571
553.4	0.95867
553.6	0.9643
553.8	0.9709
554	0.97843
554.2	0.98397
554.4	0.98637
554.6	0.98531
554.8	0.98101
555	0.97505
555.2	0.96772
555.4	0.96119
555.6	0.95703
555.8	0.95574
556	0.9576
556.2	0.96339
556.4	0.97038
556.6	0.97759
556.8	0.98301
557	0.98587
557.2	0.98507
557.4	0.98095
557.6	0.97467
557.8	0.96677
558	0.95823
558.2	0.95148
558.4	0.94827
558.6	0.9476
558.8	0.95096
559	0.9571
559.2	0.96493
559.4	0.97268
559.6	0.97933
559.8	0.98398
560	0.98486
560.2	0.98298
560.4	0.97911
560.6	0.9733
560.8	0.96758
561	0.96269
561.2	0.96065
561.4	0.96142
561.6	0.96365
561.8	0.96879
562	0.9747
562.2	0.97994
562.4	0.98455
562.6	0.9862
562.8	0.98403
563	0.98041
563.2	0.97383
563.4	0.96668
563.6	0.9593
563.8	0.95447
564	0.95228
564.2	0.95281
564.4	0.95586
564.6	0.96149
564.8	0.96846
565	0.97544
565.2	0.98141
565.4	0.98457
565.6	0.98446
565.8	0.9814
566	0.97579
566.2	0.96774
566.4	0.95889
566.6	0.95162
566.8	0.94594
567	0.94349
567.2	0.94393
567.4	0.94831
567.6	0.95357
567.8	0.96145
568	0.9685
568.2	0.97393
568.4	0.97766
568.6	0.97866
568.8	0.97752
569	0.97294
569.2	0.96715
569.4	0.96152
569.6	0.9563
569.8	0.95348
570	0.95322
570.2	0.95662
570.4	0.96054
570.6	0.96593
570.8	0.97209
571	0.978
571.2	0.98136
571.4	0.98234
571.6	0.98172
571.8	0.97586
572	0.96903
572.2	0.96168
572.4	0.95432
572.6	0.94858
572.8	0.94487
573	0.94499
573.2	0.94708
573.4	0.95174
573.6	0.95878
573.8	0.96609
574	0.97303
574.2	0.97731
574.4	0.98127
574.6	0.98007
574.8	0.97523
575	0.96889
575.2	0.96178
575.4	0.95362
575.6	0.94849
575.8	0.94495
576	0.94348
576.2	0.94544
576.4	0.94975
576.6	0.95534
576.8	0.96249
577	0.96916
577.2	0.97401
577.4	0.97654
577.6	0.97618
577.8	0.97261
578	0.96648
578.2	0.96077
578.4	0.95378
578.6	0.94825
578.8	0.94396
579	0.9431
579.2	0.94516
579.4	0.94952
579.6	0.95608
579.8	0.96376
580	0.97175
580.2	0.97686
580.4	0.98046
580.6	0.98033
580.8	0.97711
581	0.97152
581.2	0.96293
581.4	0.95364
581.6	0.94536
581.8	0.93841
582	0.93462
582.2	0.93424
582.4	0.9362
582.6	0.94168
582.8	0.94893
583	0.95749
583.2	0.96539
583.4	0.97356
583.6	0.97697
583.8	0.9782
584	0.97637
584.2	0.97133
584.4	0.96523
584.6	0.95723
584.8	0.94891
585	0.94262
585.2	0.9389
585.4	0.9381
585.6	0.94049
585.8	0.94676
586	0.95443
586.2	0.96363
586.4	0.97142
586.6	0.97817
586.8	0.98272
587	0.98358
587.2	0.98114
587.4	0.97523
